Time(ns),Calculated Values(V1),Calculated Values(V2)
0.000000,2.500000,2.500000,
0.002000,2.499500,2.500367,
0.074310,2.481574,2.513597,
0.146611,2.463936,2.526739,
0.219076,2.446541,2.539826,
0.291708,2.429390,2.552859,
0.364509,2.412483,2.565838,
0.437481,2.395817,2.578762,
0.510626,2.379393,2.591634,
0.583947,2.363211,2.604452,
0.657445,2.347269,2.617218,
0.731123,2.331567,2.629931,
0.804982,2.316106,2.642593,
0.879026,2.300883,2.655203,
0.953257,2.285900,2.667762,
1.027676,2.271154,2.680269,
1.102286,2.256647,2.692726,
1.177088,2.242378,2.705133,
1.252086,2.228346,2.717489,
1.327282,2.214552,2.729796,
1.402677,2.200994,2.742052,
1.478274,2.187672,2.754260,
1.554075,2.174587,2.766417,
1.630082,2.161738,2.778526,
1.706298,2.149124,2.790586,
1.782725,2.136747,2.802597,
1.859365,2.124604,2.814559,
1.936220,2.112697,2.826473,
2.013292,2.101025,2.838338,
2.090584,2.089588,2.850156,
2.168099,2.078386,2.861925,
2.245837,2.067419,2.873646,
2.323802,2.056686,2.885319,
2.401995,2.046189,2.896944,
2.480420,2.035925,2.908521,
2.559078,2.025897,2.920050,
2.637971,2.016103,2.931532,
2.717101,2.006544,2.942966,
2.796472,1.997219,2.954352,
2.876085,1.988129,2.965690,
2.955942,1.979274,2.976980,
3.036046,1.970654,2.988223,
3.116399,1.962268,2.999418,
3.197003,1.954118,3.010565,
3.277860,1.946203,3.021664,
3.358973,1.938517,3.032715,
3.390464,1.935566,3.036983,
3.502755,1.925119,3.052102,
3.615303,1.914766,3.067098,
3.728443,1.904474,3.082017,
3.842174,1.894246,3.096859,
3.956500,1.884080,3.111622,
4.071424,1.873978,3.126308,
4.186948,1.863940,3.140915,
4.303075,1.853965,3.155443,
4.419807,1.844055,3.169893,
4.537147,1.834208,3.184264,
4.655099,1.824427,3.198556,
4.773665,1.814710,3.212768,
4.892847,1.805057,3.226901,
5.012648,1.795470,3.240954,
5.133072,1.785948,3.254927,
5.254122,1.776492,3.268820,
5.375799,1.767101,3.282633,
5.498108,1.757776,3.296365,
5.621052,1.748516,3.310017,
5.744632,1.739323,3.323588,
5.868854,1.730196,3.337078,
5.993719,1.721135,3.350487,
6.119231,1.702648,3.363826,
6.125629,1.701582,3.364502,
6.204165,1.688658,3.372784,
6.282728,1.676015,3.381022,
6.361511,1.663621,3.389236,
6.440515,1.651477,3.397426,
6.519742,1.639581,3.405592,
6.599195,1.627934,3.413735,
6.678874,1.616536,3.421852,
6.758784,1.605386,3.429945,
6.838926,1.594485,3.438013,
6.919301,1.583832,3.446055,
6.999912,1.573427,3.454072,
7.080762,1.563271,3.462064,
7.161853,1.553362,3.470029,
7.243185,1.543702,3.477968,
7.324763,1.534290,3.485881,
7.406587,1.525126,3.493767,
7.488660,1.516209,3.501625,
7.570985,1.507541,3.509457,
7.653562,1.499122,3.517261,
7.736395,1.490950,3.525037,
7.819485,1.483027,3.532785,
7.902835,1.475352,3.540504,
7.986447,1.467925,3.548195,
8.070323,1.460747,3.555857,
8.154464,1.453818,3.563489,
8.238874,1.447137,3.571091,
8.323554,1.440705,3.578664,
8.408506,1.434522,3.586207,
8.493733,1.428589,3.593718,
8.579237,1.422905,3.601199,
8.665020,1.417470,3.608649,
8.751084,1.412285,3.616067,
8.837431,1.407351,3.623454,
8.924063,1.402666,3.630808,
9.010983,1.398231,3.638129,
9.098193,1.394048,3.645418,
9.185695,1.390115,3.652674,
9.273491,1.386433,3.659896,
9.361584,1.382995,3.667084,
9.394228,1.381747,3.669733,
9.538098,1.376294,3.681313,
9.682249,1.370908,3.692762,
9.827196,1.365571,3.704122,
9.972943,1.360281,3.715393,
10.119496,1.355040,3.726575,
10.266859,1.349846,3.737667,
10.415039,1.344700,3.748671,
10.564042,1.339602,3.759585,
10.713874,1.334552,3.770410,
10.864541,1.329549,3.781146,
11.016050,1.324594,3.791792,
11.168406,1.319686,3.802350,
11.321617,1.314825,3.812819,
11.475689,1.310012,3.823200,
11.630628,1.305246,3.833491,
11.786442,1.300526,3.843694,
11.943139,1.295854,3.853808,
12.100723,1.279217,3.863851,
12.108313,1.278271,3.864333,
12.191275,1.268081,3.869577,
12.274271,1.258177,3.874797,
12.357517,1.248533,3.880006,
12.441014,1.239147,3.885202,
12.524764,1.230021,3.890386,
12.608769,1.221154,3.895557,
12.693030,1.212546,3.900715,
12.777550,1.204198,3.905859,
12.862331,1.196109,3.910989,
12.947375,1.188278,3.916104,
13.032683,1.180708,3.921205,
13.118257,1.173396,3.926290,
13.204100,1.166344,3.931360,
13.290214,1.159552,3.936414,
13.376600,1.153019,3.941451,
13.463260,1.146746,3.946471,
13.550197,1.140732,3.951474,
13.637413,1.134979,3.956459,
13.724909,1.129485,3.961427,
13.812687,1.124252,3.966375,
13.900750,1.119279,3.971305,
13.989099,1.114566,3.976216,
14.077737,1.110114,3.981107,
14.166666,1.105922,3.985977,
14.255887,1.101992,3.990828,
14.345404,1.098322,3.995657,
14.435217,1.094914,4.000465,
14.525329,1.091767,4.005251,
14.615742,1.088881,4.010015,
14.706459,1.086258,4.014757,
14.797481,1.083896,4.019476,
14.888810,1.081796,4.024171,
14.980449,1.079959,4.028842,
15.072401,1.078385,4.033490,
15.164666,1.077073,4.038113,
15.257248,1.076025,4.042710,
15.350148,1.075240,4.047283,
15.443369,1.074542,4.051829,
15.617716,1.073253,4.060222,
15.792713,1.071983,4.068504,
15.968831,1.070726,4.076697,
16.146079,1.069483,4.084801,
16.324467,1.068255,4.092817,
16.504009,1.067040,4.100745,
16.684716,1.065840,4.108585,
16.866602,1.064653,4.116338,
17.049679,1.063480,4.124004,
17.233959,1.062321,4.131583,
17.419458,1.061176,4.139076,
17.606187,1.060044,4.146483,
17.794161,1.058926,4.153803,
17.983394,1.057821,4.161039,
18.173900,1.042502,4.168212,
18.182691,1.041633,4.168542,
18.268801,1.033283,4.171760,
18.354946,1.025222,4.174965,
18.441356,1.017429,4.178166,
18.528032,1.009904,4.181362,
18.614977,1.002646,4.184552,
18.702193,0.995655,4.187737,
18.789680,0.988932,4.190915,
18.877442,0.982476,4.194087,
18.965480,0.976287,4.197251,
19.053795,0.970367,4.200408,
19.142391,0.964713,4.203557,
19.231268,0.959328,4.206697,
19.320429,0.954210,4.209828,
19.409876,0.949360,4.212950,
19.499610,0.944778,4.216062,
19.589634,0.940464,4.219163,
19.679950,0.936418,4.222254,
19.770559,0.932640,4.225334,
19.861464,0.929131,4.228401,
19.952667,0.925890,4.231457,
20.044169,0.922917,4.234501,
20.135973,0.920214,4.237531,
20.228081,0.917778,4.240548,
20.320495,0.915612,4.243551,
20.413217,0.913715,4.246540,
20.506249,0.912088,4.249514,
20.599593,0.910730,4.252473,
20.693252,0.909641,4.255417,
20.787228,0.908822,4.258344,
20.881523,0.908273,4.261255,
20.976138,0.907994,4.264149,
21.071077,0.907986,4.267025,
21.166342,0.908248,4.269884,
21.261934,0.908781,4.272725,
21.357857,0.909584,4.275546,
21.427832,0.910215,4.277587,
21.625004,0.911968,4.283255,
21.822751,0.913691,4.288822,
22.021959,0.915394,4.294313,
22.222642,0.917075,4.299727,
22.424820,0.918734,4.305067,
22.628514,0.920373,4.310331,
22.833745,0.921991,4.315522,
23.040533,0.923587,4.320638,
23.248900,0.925163,4.325680,
23.458870,0.926718,4.330649,
23.670464,0.928252,4.335546,
23.883706,0.929766,4.340370,
24.098619,0.921836,4.345123,
24.106383,0.921145,4.345294,
24.194041,0.913499,4.347224,
24.281726,0.906147,4.349151,
24.369682,0.899068,4.351078,
24.457910,0.892261,4.353006,
24.546412,0.885727,4.354935,
24.635190,0.879465,4.356863,
24.724245,0.873476,4.358790,
24.813579,0.867759,4.360716,
24.903194,0.862315,4.362640,
24.993093,0.857143,4.364563,
25.083277,0.852244,4.366482,
25.173747,0.847618,4.368398,
25.264507,0.843265,4.370311,
25.355557,0.839184,4.372220,
25.446900,0.835376,4.374124,
25.538539,0.831841,4.376023,
25.630473,0.828579,4.377917,
25.722707,0.825589,4.379805,
25.815242,0.822873,4.381687,
25.908079,0.820431,4.383561,
26.001221,0.818261,4.385429,
26.094670,0.816365,4.387289,
26.188429,0.814742,4.389140,
26.282498,0.813393,4.390983,
26.376881,0.812318,4.392817,
26.471580,0.811517,4.394641,
26.566596,0.810989,4.396455,
26.661932,0.810736,4.398259,
26.757590,0.810757,4.400051,
26.853572,0.811053,4.401833,
26.949881,0.811623,4.403602,
27.046518,0.812468,4.405359,
27.143487,0.813588,4.407103,
27.240789,0.814983,4.408834,
27.338427,0.816653,4.410552,
27.436402,0.818441,4.412255,
27.642888,0.822151,4.415779,
27.850166,0.825800,4.419230,
28.059058,0.829401,4.422622,
28.269581,0.832955,4.425955,
28.481760,0.836462,4.429230,
28.695620,0.839922,4.432447,
28.911187,0.843336,4.435607,
29.128487,0.846704,4.438710,
29.347547,0.850025,4.441756,
29.568395,0.853301,4.444747,
29.791058,0.856531,4.447682,
30.015567,0.859717,4.450562,
30.241949,0.841340,4.453435,
30.330378,0.834689,4.454560,
30.419507,0.828281,4.455695,
30.508910,0.822148,4.456834,
30.598592,0.816292,4.457977,
30.688553,0.810710,4.459122,
30.778797,0.805405,4.460270,
30.869324,0.800375,4.461419,
30.960137,0.795620,4.462571,
31.051238,0.791141,4.463723,
31.142628,0.786938,4.464876,
31.234310,0.783010,4.466029,
31.326285,0.779358,4.467181,
31.418555,0.775982,4.468333,
31.511123,0.772881,4.469483,
31.603990,0.770056,4.470631,
31.697159,0.767507,4.471777,
31.790631,0.765234,4.472920,
31.884408,0.763237,4.474060,
31.978493,0.761516,4.475197,
32.072887,0.760071,4.476329,
32.167593,0.758903,4.477456,
32.262613,0.758010,4.478578,
32.357949,0.757395,4.479694,
32.453603,0.757055,4.480805,
32.549578,0.756993,4.481909,
32.645875,0.757207,4.483005,
32.742496,0.757698,4.484095,
32.839445,0.758466,4.485176,
32.936723,0.759511,4.486249,
33.034332,0.760834,4.487313,
33.132276,0.762434,4.488367,
33.230556,0.764312,4.489412,
33.329174,0.766468,4.490446,
33.428133,0.768765,4.491469,
33.482504,0.770019,4.492025,
33.691727,0.774780,4.494125,
33.901398,0.779453,4.496168,
34.112697,0.784065,4.498166,
34.325640,0.788614,4.500119,
34.540252,0.793102,4.502027,
34.756558,0.797530,4.503891,
34.974585,0.801896,4.505712,
35.194359,0.806203,4.507490,
35.415907,0.810449,4.509225,
35.639258,0.814636,4.510919,
35.864440,0.818763,4.512571,
36.091483,0.812846,4.514181,
36.099614,0.812209,4.514240,
36.188884,0.805375,4.514883,
36.278176,0.798839,4.515531,
36.367745,0.792580,4.516187,
36.457591,0.786598,4.516849,
36.547716,0.780894,4.517517,
36.638121,0.775467,4.518190,
36.728810,0.770317,4.518868,
36.819783,0.765445,4.519551,
36.911042,0.760850,4.520238,
37.002590,0.756533,4.520928,
37.094429,0.752492,4.521621,
37.186559,0.748729,4.522316,
37.278984,0.745244,4.523014,
37.371705,0.742035,4.523713,
37.464724,0.739105,4.524413,
37.558043,0.736451,4.525113,
37.651664,0.734075,4.525814,
37.745590,0.731977,4.526514,
37.839822,0.730156,4.527213,
37.934362,0.728613,4.527911,
38.029212,0.727347,4.528607,
38.124375,0.726360,4.529301,
38.219853,0.725650,4.529991,
38.315647,0.725218,4.530679,
38.411760,0.725064,4.531362,
38.508195,0.725188,4.532042,
38.604952,0.725591,4.532716,
38.702035,0.726272,4.533386,
38.799446,0.727231,4.534049,
38.897187,0.728469,4.534707,
38.995261,0.729986,4.535358,
39.093669,0.731782,4.536001,
39.192414,0.733857,4.536637,
39.291499,0.736211,4.537265,
39.390926,0.738793,4.537884,
39.416167,0.739451,4.538040,
39.624462,0.744822,4.539296,
39.832970,0.750088,4.540507,
40.043063,0.755284,4.541682,
40.254755,0.760410,4.542821,
40.468070,0.765466,4.543925,
40.683032,0.770454,4.544993,
40.899665,0.775373,4.546027,
41.117996,0.780224,4.547027,
41.338051,0.785008,4.547993,
41.559855,0.789724,4.548926,
41.783437,0.794373,4.549827,
42.008823,0.798956,4.550695,
42.236043,0.781835,4.551578,
42.325380,0.775630,4.551938,
42.415425,0.769674,4.552309,
42.505747,0.763996,4.552687,
42.596350,0.758596,4.553073,
42.687236,0.753475,4.553464,
42.778406,0.748632,4.553862,
42.869863,0.744068,4.554266,
42.961608,0.739782,4.554674,
43.053644,0.735774,4.555087,
43.145971,0.732044,4.555504,
43.238593,0.728593,4.555925,
43.331511,0.725420,4.556349,
43.424728,0.722526,4.556775,
43.518244,0.719910,4.557204,
43.612062,0.717572,4.557634,
43.706185,0.715513,4.558065,
43.800614,0.713732,4.558497,
43.895351,0.712230,4.558929,
43.990398,0.711006,4.559361,
44.085758,0.710062,4.559792,
44.181432,0.709395,4.560222,
44.277423,0.709008,4.560650,
44.373733,0.708900,4.561076,
44.470364,0.709070,4.561499,
44.567318,0.709520,4.561918,
44.664597,0.710249,4.562334,
44.762205,0.711257,4.562746,
44.860142,0.712545,4.563153,
44.958412,0.714112,4.563555,
45.057016,0.715959,4.563951,
45.155957,0.718085,4.564342,
45.255238,0.720492,4.564725,
45.354861,0.723179,4.565101,
45.454827,0.725932,4.565470,
45.662506,0.731565,4.566208,
45.870940,0.737103,4.566913,
46.080937,0.742566,4.567587,
46.292513,0.747955,4.568231,
46.505690,0.753271,4.568845,
46.720494,0.758515,4.569430,
46.936947,0.763686,4.569985,
47.155076,0.768785,4.570513,
47.374905,0.773812,4.571012,
47.596459,0.778768,4.571484,
47.819767,0.783654,4.571929,
48.044854,0.788469,4.572347,
48.271748,0.771849,4.572785,
48.361354,0.765811,4.572974,
48.451667,0.760022,4.573172,
48.542259,0.754513,4.573379,
48.633133,0.749282,4.573594,
48.724290,0.744331,4.573816,
48.815734,0.739659,4.574044,
48.907464,0.735265,4.574279,
48.999484,0.731150,4.574520,
49.091796,0.727315,4.574766,
49.184400,0.723758,4.575017,
49.277300,0.720480,4.575272,
49.370497,0.717481,4.575531,
49.463993,0.714761,4.575793,
49.557790,0.712320,4.576059,
49.651891,0.710158,4.576326,
49.746297,0.708275,4.576595,
49.841010,0.706671,4.576866,
49.936032,0.705346,4.577137,
50.031366,0.704300,4.577409,
50.127013,0.703534,4.577681,
50.222976,0.703047,4.577952,
50.319257,0.702839,4.578222,
50.415858,0.702910,4.578490,
50.512781,0.703262,4.578757,
50.610028,0.703892,4.579021,
50.707602,0.704803,4.579281,
50.805505,0.705993,4.579538,
50.903740,0.707464,4.579792,
51.002307,0.709214,4.580040,
51.101211,0.711245,4.580284,
51.200453,0.713556,4.580522,
51.300036,0.716148,4.580754,
51.399961,0.718948,4.580979,
51.427371,0.719717,4.581040,
51.635730,0.725497,4.581482,
51.844304,0.731163,4.581894,
52.054434,0.736753,4.582279,
52.266134,0.742267,4.582637,
52.479426,0.747706,4.582969,
52.694334,0.753071,4.583275,
52.910882,0.758360,4.583555,
53.129094,0.763576,4.583810,
53.348996,0.768718,4.584041,
53.570612,0.773787,4.584248,
53.793969,0.778784,4.584430,
54.019094,0.783709,4.584590,
54.246014,0.767020,4.584772,
54.335648,0.760954,4.584862,
54.425990,0.755138,4.584962,
54.516611,0.749602,4.585070,
54.607513,0.744345,4.585187,
54.698699,0.739367,4.585312,
54.790170,0.734668,4.585444,
54.881928,0.730249,4.585583,
54.973975,0.726109,4.585729,
55.066314,0.722248,4.585880,
55.158945,0.718667,4.586037,
55.251872,0.715364,4.586199,
55.345095,0.712341,4.586365,
55.438618,0.709597,4.586535,
55.532441,0.707133,4.586709,
55.626567,0.704948,4.586885,
55.720998,0.703042,4.587064,
55.815736,0.701415,4.587245,
55.910782,0.700068,4.587427,
56.006141,0.699000,4.587611,
56.101812,0.698212,4.587794,
56.197799,0.697703,4.587978,
56.294103,0.697474,4.588161,
56.390727,0.697525,4.588344,
56.487673,0.697855,4.588524,
56.584943,0.698466,4.588703,
56.682539,0.699356,4.588879,
56.780464,0.700527,4.589052,
56.878719,0.701977,4.589222,
56.977309,0.703709,4.589388,
57.076233,0.705720,4.589549,
57.175496,0.708012,4.589706,
57.275098,0.710585,4.589857,
57.375044,0.713417,4.590002,
57.402365,0.714198,4.590040,
57.610252,0.720079,4.590317,
57.818350,0.725843,4.590566,
58.027991,0.731531,4.590790,
58.239188,0.737142,4.590989,
58.451962,0.742676,4.591164,
58.666338,0.748133,4.591314,
58.882338,0.753515,4.591441,
59.099988,0.758822,4.591545,
59.319310,0.764054,4.591626,
59.540331,0.769212,4.591684,
59.763076,0.774296,4.591721,
59.987571,0.779306,4.591736,
60.213844,0.767513,4.591762,
60.223958,0.766803,4.591764,
60.314251,0.760636,4.591792,
60.404571,0.754767,4.591830,
60.495171,0.749177,4.591877,
60.586053,0.743867,4.591933,
60.677217,0.738836,4.591997,
60.768667,0.734085,4.592069,
60.860403,0.729613,4.592149,
60.952428,0.725420,4.592235,
61.044743,0.721508,4.592328,
61.137352,0.717874,4.592426,
61.230254,0.714520,4.592530,
61.323453,0.711445,4.592639,
61.416951,0.708650,4.592752,
61.510749,0.706134,4.592869,
61.604850,0.703898,4.592990,
61.699255,0.701941,4.593113,
61.793966,0.700264,4.593238,
61.888986,0.698866,4.593366,
61.984317,0.697748,4.593495,
62.079961,0.696910,4.593625,
62.175919,0.696351,4.593755,
62.272195,0.696072,4.593885,
62.368789,0.696073,4.594014,
62.465705,0.696354,4.594143,
62.562945,0.696915,4.594270,
62.660511,0.697756,4.594395,
62.758405,0.698877,4.594517,
62.856629,0.700279,4.594636,
62.955186,0.701961,4.594752,
63.054078,0.703924,4.594863,
63.153307,0.706167,4.594971,
63.252876,0.708691,4.595073,
63.352787,0.711497,4.595169,
63.453043,0.714375,4.595260,
63.660961,0.720252,4.595428,
63.869623,0.726029,4.595572,
64.079828,0.731728,4.595691,
64.291593,0.737349,4.595787,
64.504940,0.742893,4.595860,
64.719893,0.748361,4.595910,
64.936475,0.753752,4.595937,
65.154710,0.759068,4.595943,
65.374623,0.764309,4.595927,
65.596238,0.769474,4.595891,
65.819583,0.774566,4.595833,
66.044682,0.779584,4.595756,
66.271564,0.763163,4.595704,
66.361344,0.757190,4.595702,
66.451832,0.751469,4.595710,
66.542600,0.746026,4.595728,
66.633649,0.740864,4.595754,
66.724983,0.735981,4.595789,
66.816602,0.731378,4.595831,
66.908510,0.727055,4.595881,
67.000707,0.723011,4.595937,
67.093195,0.719246,4.596000,
67.185977,0.715761,4.596068,
67.279055,0.712556,4.596142,
67.372430,0.709630,4.596221,
67.466105,0.706984,4.596304,
67.560081,0.704617,4.596390,
67.654361,0.702530,4.596480,
67.748946,0.700722,4.596573,
67.843838,0.699194,4.596668,
67.939041,0.697946,4.596765,
68.034555,0.696977,4.596863,
68.130383,0.696289,4.596962,
68.226527,0.695880,4.597062,
68.322989,0.695751,4.597161,
68.419772,0.695902,4.597260,
68.516877,0.696333,4.597357,
68.614306,0.697045,4.597453,
68.712063,0.698036,4.597546,
68.810149,0.699308,4.597637,
68.908567,0.700861,4.597725,
69.007319,0.702694,4.597810,
69.106407,0.704808,4.597890,
69.205833,0.707202,4.597965,
69.305601,0.709878,4.598036,
69.405712,0.712750,4.598101,
69.434918,0.713587,4.598119,
69.643434,0.719498,4.598231,
69.852173,0.725292,4.598320,
70.062458,0.731009,4.598385,
70.274302,0.736647,4.598427,
70.487726,0.742208,4.598446,
70.702755,0.747692,4.598444,
70.919412,0.753100,4.598420,
71.137721,0.758432,4.598374,
71.357706,0.763688,4.598308,
71.579393,0.768869,4.598222,
71.802807,0.773975,4.598115,
72.027975,0.779008,4.597989,
72.254923,0.762483,4.597890,
72.344676,0.756473,4.597870,
72.435137,0.750715,4.597859,
72.525877,0.745236,4.597859,
72.616900,0.740037,4.597867,
72.708206,0.735117,4.597884,
72.799797,0.730477,4.597908,
72.891676,0.726117,4.597940,
72.983845,0.722037,4.597980,
73.076305,0.718236,4.598025,
73.169058,0.714714,4.598077,
73.262107,0.711473,4.598134,
73.355453,0.708511,4.598195,
73.449097,0.705828,4.598262,
73.543044,0.703425,4.598332,
73.637293,0.701302,4.598406,
73.731847,0.699458,4.598483,
73.826709,0.697894,4.598562,
73.921880,0.696610,4.598643,
74.017363,0.695605,4.598726,
74.113159,0.694881,4.598809,
74.209271,0.694436,4.598894,
74.305701,0.694271,4.598978,
74.402451,0.694387,4.599061,
74.499523,0.694782,4.599144,
74.596919,0.695458,4.599225,
74.694643,0.696414,4.599305,
74.792695,0.697650,4.599381,
74.891078,0.699167,4.599455,
74.989795,0.700964,4.599525,
75.088848,0.703043,4.599592,
75.188240,0.705402,4.599654,
75.287971,0.708042,4.599711,
75.388047,0.710919,4.599762,
75.412823,0.711635,4.599774,
75.621033,0.717576,4.599860,
75.829432,0.723401,4.599922,
76.039372,0.729148,4.599960,
76.250864,0.734816,4.599976,
76.463930,0.740406,4.599970,
76.678594,0.745919,4.599942,
76.894880,0.751356,4.599893,
77.112810,0.756716,4.599823,
77.332410,0.762000,4.599732,
77.553704,0.767209,4.599621,
77.776717,0.772343,4.599491,
78.001477,0.777403,4.599341,
78.228010,0.760764,4.599219,
78.317716,0.754701,4.599190,
78.408129,0.748889,4.599171,
78.498821,0.743356,4.599161,
78.589794,0.738103,4.599161,
78.681051,0.733130,4.599169,
78.772592,0.728436,4.599185,
78.864422,0.724023,4.599209,
78.956540,0.719889,4.599240,
79.048949,0.716034,4.599278,
79.141651,0.712459,4.599321,
79.234648,0.709164,4.599371,
79.327942,0.706148,4.599425,
79.421534,0.703412,4.599484,
79.515428,0.700956,4.599547,
79.609624,0.698779,4.599614,
79.704125,0.696882,4.599683,
79.798933,0.695265,4.599756,
79.894050,0.693927,4.599830,
79.989478,0.692869,4.599906,
80.085219,0.692091,4.599983,
80.181275,0.691593,4.600061,
80.277649,0.691375,4.600139,
80.374342,0.691437,4.600217,
80.471357,0.691779,4.600293,
80.568697,0.692402,4.600369,
80.666362,0.693305,4.600442,
80.764356,0.694488,4.600513,
80.862681,0.695951,4.600582,
